2055205620552057205120512053205320522051205520532055205720562056205320532053205320562051205220532052205420522055205320522053205520552054205320572054205020542055205620572055205220512053205420562054205520542057205620562054205620562051205520552052205120542053205420542053205520512051205220552054205520552057205420542055205320532055205420532053205420542053205420512054205520532053205420552054205120522054205520552056205420512056205520542054205220552055205320532051205520542053205420502052205620552053205220542054205320522052205520532053205020522055205720562053205320542055205620552055205420552055205420552052205520542053205220532053205220512053205420552053205020532053205320572052205420542055205320492051205420542055205620542055205420552053205220542050205220522051205420542057205320552059205520562055205220532055205420542053205420562052205520522053205420532054205320522052205220502050205320532052205520552055205420542052205420542054205420552058205520532056205320522053204920542055205220552056205720562054205420532053205220512055205420542053205620532051205520552052205420562055205220552054205420542052205420552054205420542056205520522054205520532054205320552052205220542052205320542054205720522055205320552053205320552054205220542055205520552052205220552053205220542054205420532055205420562054205220562052205420542054205520552055205620552052205220552053205220552054205620542056205220522052205520562054205220542051205220522053205320522052205420532054205520552056205420542056205220502056205220552055205320522052205320542053205320512052205320522052205120552055205320552057205320552052205520552054205320542056205320502053205520532055205520532055205220532056205220522054205220542055205420532055205520542051205120542054205420532053205620572055205520552056205220512052205320552053205320532054205420552053205220532055205420512054205320522054205420532051205620552056205320522055205220542052205120562054205420532053205420572052205620532054205320522051205520552054205720542055205320532053205420532054205420542053205420552053205420542054205620512053205320552053205420562053205620552055205420542054205420522052205320512052205520532052205220552055205520522054205420542054205220532055205420522056205420542051205420532055205520522051205120532054205320562053205420522052205520532052205120492054205420542050205220542053205620492054205320532051205220562055205420522052205220542055205420562053205220522053205420542053205320542056205220532054205320552056205320552056205620552051205520552055205520562055205420512053205520542050205420542054205320522054205520592055205420532052205420522057205420552055205520542054205220542051205420542053205420512055205620552053205420542051205420502053205320532055205320532052205320542053205420542051205520542055205520562054205420522051205320522054205420522051205520552055205420532054205420552055205420542052205620542055205420562052205420552054205220492053205620542051205520522052205320542053205420532054205220522056205220552055205520552055205520542052205320552055205320532053205320542053205220552056205520522053205520552055205420542056205320522050205120532055205320502054205320552054205420522052205420552052205420532052205420542054205420552053205320532054205420542053205520572053205320532054205420562055205320552057205620542053204920522054205320512052205120522054205420542054205320562055205220552054205420542054205520552053205420532053205420532055205420552053205520552057205520512051205320522056205420532056205420542054205420512052205320532053205120512052205520542055205220532053205420552055205620552053205320552053205620542053205520542054205520512054205420552054205420532053205420552053205320542052205420522054205320562054205120522054205620532054205620562053205320542053205520542054205320542052205320542052205520542054205420522053205620542053205620532054205320522055205520532054205520522052205320532054205320542053205520542054205520552056205220532052205420552055205320552052205520552053205020522055205420542053205120522055205320522053205320532052205420552054205120512053205520522052205420542055205620542056205120562055205220522050205120542054205420532054205520542054205220572058205620542049205220522053205420562057205820572054205420542051205520522055205620542053205120532053205420542052205120542052205320522052205220512053205520532054205420552054205120542055205720532055205520552056205420542051205220502054205020512054205620552053205620552055205420532054205620552053205320542055205620532051205420512053205420542054205620552054205320532052205420552053205120512054205320532052205420562054205320542054205420532054205420562055205420552056205520552054205220552053205420542052205420532053205320542056205520572054205320532055205120542055205720552054205620542054205620562051205220502054205620532053205520532050205220542053205420562051205320522053205420542053205520552056205620542054205520552052205220542055205320542053205220552053205520542054205520542054205220572053205420532051205320532055205620562053205420542052205420512054205620542053205420532053205420542053205320532056205620532054205320512054205620532050205220532056205620542054205420542055205420502054205420562053205120562051205320542052205420552052205120522053205320532052205420552054205720562055205220542054205320522056205320552053205220542054205420512053205520572053205120522052205620552055205420532054205520532053205620562057205320552053205420522056205420542054205320512055205320532054205220532051205320542053205320542054205220532052205320522053205420542053205420562056205320532052205420512054205420542056205320542049205120522053205520562054205520522051205320512054205420512053205520552052205520512054205120562054205420552056205420512050205120532052205320532057205520532054205420582053205620542054205420512054205420542054205320532053205520522052205220512055205520542055205220532054205620552052205320532055205420532054205320552053205320502054205320542054205820572055205620542054205420512051205120512052205020502054205620552055205420542054205420552054205320542053205020532052205220542052205220522055205320532053205320542056205520542054205320552057205520532057205320522052205320482052205220512054205420552056205420562054205420552052205520552057205520542053205120532055205320532053205320522053205220542055205320572052205420542053205320562055205820542053205220522053205320502056205220562052205120542055205820542055205520542055205520522052205120542054205420522054205420542054205420522053205520512054205420552055205320522051205120542051205220542057205620562054205420532053205520542054205720552053205420562057205320552052205220522051205320522052205520542052205220562055205620522052205120552055205520542055205420542053205420542054205120542051205420542053205320542054205520532050205420542053205520522053205420552055205320512054205220542053205120552055205420552058205820572055205420492051205220522051205020532055205520542056205620572054205420522052205420532051205320532055205620572053205120552053205220502053205420562050205320542055205420522056205620562055205420552057205420532055205120542055205420542052205220512052205520552056205820582054205320552054205220512052205420532055205220562054205620542055205420522054205220532050205320532053205020512056205120542052205320572054205320552055205620552054205320492051205120522052205620592056205620552055205320532051205220522054205520542053205420542054205320522052205320542055205020532054205520542052205320542055205620542057205320562055205620552058205720552053205120512050205220522054205220552055205020522052205320512054205220542054205220532054205320552053205320542056205620542055205320532053205320552055205320542052205220542052205320562052205320582057205620542051205320542051205520512054205220542050205220562055205520542051205220532054205120552057205620562054205520552056205420532053205320542057205320542056205020532057205720572059205320512052205120532054205620552052205220542050205120552057205520512052205620542053205320552054205320532052205220562055205520522052205320552053204920502052205320562056205720562056205920562058205720572058205520552055205620532049204920532055205420552057205320532053205020512050205220522053205320562055205520532050205420512052205120512056205320562052205520572053205220512055205120552054205520552055205120552052205020562054205620572053205320572052205520552055205420522052205320532053205420532054205320522053205420532054205420532054205020542055205620562053205520542054205520552055205520552054205220512055205220542052205720542051205320522057205220502053205420542051205520532054205420552054205420532054205520542051205420542054205520532056205420552052205520512055205420532054205420552055205420542054205420562054205720522053205420552053205320542054205320522054205220542054205420522053205320512053205420552055205520552055205620542053205320552056205320532054205320562054205220522055205720532055205420522056205520532049205320522053205620542053205420552056205320522051205120532056205220522056205520552054205620532055205120552058205420532052205320542055205520532052205320582055205120532053205420552052205220552055205120522053205320532054205420542052205120522053205220532055205420552055205420542057205420532053205420532053205520522055205320562055205420522055205220532054205420582055205620552053205220532052205520552052205220552056205420552052205320532053205520542055205720572056205220532055205320542052205120542053205320522055205220552053205420542052205520512049205420542053205420582054205620552053205220512054205420522054205520552052205420552058205520522055205220522052205420532054205620562052205220542054205420542050205320532055205420532052205520552054205320512054205420532054205220542054205120532053205620542055205320512055205420522052205420552055205620522052205420542053205420552054205520562054205620532055205320542052205420562055205220552054205520522053205220552053205220542053205520522053205320532054205520562057205520542053205220552052205520522054205420512052205420542056205120552053205520532051205620522056205320552053205320512053205320552055205520542054205620562058205420532055205420552052205220542052205520542054205220542053205220532054205520522054205320552056205520562056205520532052205120542054205320542053205420552055205220542052205120542056205420572057205520522051205120542052205320532053205320562054205420542053205320522053205620532054205520542055205420542054205320532052205220552050205520552054205520552055205420542056205320552053205520552051205320542054205320552052205420522051204920512053205420562055205220532056205520552054205420562054205520522055205420552054205320542054205220512052205920542052205320552053205220552051205220552057205220542053205420532053205320572057205220522052205320532054205520552055205320562054205020512052205420572053205320562056205620542055205720542055205420542054205320542055205520552052205020542048205420572056205220512054205320542053205220512054205520532054205320552051205520542054205220532050205520542055205520562054205320572051205320502055205520542053205020532054205520552051205420552053205320512054205420542055205520552053205420532051205320552052205420562055205320552053205320552055205320542056205720532055205420532055205220552053205220542054205720552052205520522052205120522055205220532057205420552053205420532053205320552052205220542055205220552055205420542054205320542055205420512054205520532054205220542053205420542052205220512053205420552057205620522054205320532054205520562054205620512052205520552056205320532054205420522054205120512055205520552053205520542051205720552053205420532055205220562054205320532054205520572055205320542058205820572052205420542054205420522054205620542055205620532056205520522053205120542052205220512052205720532054205320532054205420522055205120552055205420532052205620542054205320572054205520522054205620552055205520522051205420562055205320562055205420542052205420532055205220492054205520532056205620512051205320532052205420532054205420532055205620532055205520552055205320522052205520522054205120532054205420542055205320552051205520562051205420522054205520532054205220562054205420522055205420552052205420542054205420522055205520522052205420532055205520522056205220512052205220532053205520512056205420572056205620542053205220522055205620512055205320542052205220532053205320552057205820562053205320502052205020552055205520552056205420572053205620522055205320532054205520522055205420552054205420542051205620562053205520512052205420532051205320532053205320532055205320572055205420542056205520582054205520532055205320542053205420532055205420542055205420532055205420532053205220552054205520522053205520542055205620542054205220522052205220542052205220552054205220532055205520542054205420512055205620522053205520562055205420542056205520552054205420582055205520522051205220542056205020542051205220492051204920532052205520532055205720552053205320542054205520522053205420542055205520542056205520532056205220542053205620562055205120552053205520542051205520522055205420532052205320532054205020542055205520532052205320522054205320522053205420582055205420532056205320532052205220512053205420562053205120552054205120572053205320562052205320532057205320552052205420512054205320532054205420552053205220542052205420532055205320542054205520532053205520552050205420522053205520552054205620552055205620552056205520512052205520512054205120512054205420572053205420532053205620552054205520562053205220522052205320542054205220532052205420522053205420532055205320532054205520542049205220552056205520552055205320552053205420532049205520532054205520542053205220522053205420542058205520532055205620532054205620562054205420522053205320572053205520532052205320532054205320532053205320532053205320542055205520552056205620522051205320532052205320522053205520552056205320552054205420512053205420572054205520542053205720562053205320532054205120522053205320552054205520562052205520552057205520522052205220542052205220552055205520512053205520542055205220532054205220532054205320532052205420562053205620542053205120542054205320522053205220522053205320522050205420532054205220562056205620562056205420542055205420542053205420522052205420552054205420532053205320542051205120532053205320582051205420512052205220542052205420532054205620532054205420552053205520562052205320552056205120542054205320542051205020552054205320532056205520552054205320562053205320552054205220542052205220532053205520532053205520532053205520562054205520522054205320522053205320552058205420532050205320532054205320532053205220542055205520542053205520552054205420522055205220552057205420542054205520542051205520532054205320542055205520522052205220522053205420522053205320532053205520562055205320542052205420522055205320532056205420552056205320522051205420532051205120522053205420542053205320562056205620532055205520552054205320542053205520552052205120522052205120512057205620552056205320522053205520542052205220532054205320522054205520532054205520532052205420552052205520562053205520572053205720522051205120542054205420532055205220552055205420532053205620542053205220552053205420522052205320542057205520532052205620552053205420512055205820552053205520552055205120562053205220532054205420552054205320572056205520532054205420522053205220522054205220542053205320542054205520562053205420532055205620562055205320572053205120532055205020542054205520562055205320552055205220532055205120532054205320552055205220522053205420522053205320532053205320532054205220512052205420542053205420592056205120552051205020522050205620522056205520542053205620552056205320512055205720522054205520542052205320562055205520542053205420542054205520542051205320552053205320542054205320542053205220542055205320532052205320542052205420532056205420532054205320552053205320552054205720522056205520532053205320522051205420522050205620552053205320542054205320532053205320572056205520552052205620572054205520562056205620532053205520522049205420532052205320522052205220532055205220522053205620542052205320572055205520542054205520552055205520542055205720522052205120532054205420562054205420532057205520532053205420552051205120542052205420562055205320532053205220542053205220572053205520552053205420542054205520552054205320512055205520542053205220552055205620562054205420552052205320492053205420562054205720552054205320552052205020552055205320542052205220552055205220542055205320572053205320542052205320542056205420552051205320542054205220522055205320542053205520552054205520532053205420542053205420522052205520542054205120542054205220552050205320542055205420532056205320542054205620552052205320542052205620562054205220522051205320542053205220522052205520532052205320512055205420552051205520552053205320552052205420542055205520532056205520512053205220532052205320532057205220542054205420522055205420522053205420512055205320552054205320532054205620542056205320542050205420542054205420522054205620572055205420552054205420552054205320542054205520552055205020532049205020532055205320552053205320532053205520542052205420542054205120562055205420532056205420542052205320522054205620542052205320512054205420522054205020562051205320512052205420562054205520532055205520562053205520542053205420512054205320542055205320552053205220532050205520552055205120522054205120522054205220552055205820542052205320522054205220522054205420542052205520532055205420522054205420542056205420522055205420532052205420562055205220532053205520532055205420542052205320542055205120522054205520542051205420532054205520532053205520512050205420552054205220522053205320532053205220542055205520512053205420552051205320522054205420562054205520552054205420522049205220512055205520552058205620542054205220552053205320522054205520552054205420542052205220532052205320552054205520552056205220552055205220532053205520552052205320502054205420562054205320552055205420522054205320542055205420532055205520552050205420532055205420532051205220522052205320542055205320512051205420552054205520532057205620552055205420522056205620542053205420542053205320522052205420532053205120532055205520562054205320542055205220522053205620542056205420532052205320542053205420512053205620532054205720552053205120512054205120572054205220562055205320552052205320572054205420542053205420532055205720562053205320552052205820542057205320542052205120552054205220542056205120532057205520552053205220512055205520542054205420542053205320532051205420542055205220532055205320532055205420532053205520532053205220532054205320532056205420542052205220572053205420542052205520522051205720532056205620542054205520562054205420552055205220542054205320522054205320512053205620542053205420532054205720542054205320532051205320532055205620572053205520542054205320542054205320532053205320542053205420532053205420542052205420552056205220522054205420542055205220522053205520532052205420572054205320552056205420542053205320542056205220532053205420532051205120552055205620572054205620552053205420522056205520522054205220542054205320532053205420552054205320542052205320552054205420532054205420542051205420542052205120522054205420542056205420562058205320542055205320532055205320502054205520552054205220532054205220532054205420532052205420522056205320542054205620532054205420542052205520552055205520552054205220552054205220532055205420542053205420542056205620542054205320532054205520522056205320502052205420542054205320512052205420552055205220542055205320552053205520542054205420552054205420542054205120522053205020522052205320562055205520562056205520552055205220522051205420542052205420542053205320542055205220562055205520552050205420542055205220542055205520552056205620542051205420552055205620512051205420532052205020522052205420572053205520532053205120492054205320542053205520542054205220522053205020512054205420572055205620572055205120512053205320542053205420552055205520502050205220512053204820522053205620542056205220542053205220522053205420552052205120542054205320552053205520552055205520542056205520562053205220552054205620542054205320542055205620562054205520542056205120522054205120532054205420542056205420552054205520512053205520532052205420532054205520522055205420532053205420552055205420522055205420512051205220552054205420542050205520562054205220522055205220552054205120542054205520542053205420572057205320542056205320562054205320532053205220522054205420542053205420502054205220532050205220542055205320552054205320512051205320522056205320532054205320562054205420552051205420532053205420502050205320532053205420562057205520522052205320512054205220542054205420512053205320572056205520552052205220542055205420542053205520522055205320522055205520532054205120532055205520552055205320542053205020532054205320552055205520552057205720512053205520562053205420532052205220512050205220552054205220532053205520532054205220552054205320532053205420542054205320542053205520582054205320552054205620522051205320532054205320552055205420532053205220552055205320532052205220522053205220532056205620562056205420552055205520542055205420532055205620532052205120522050205320512050205520552053205420542055205320542054205520562053205120532054205520562052205420552056205320512052205320552055205520542052205420562053205220542053205220522055205520532054205220532056205420542055205420562053205320532055205320542054205220562057205620552052205320522052205320512054205120542052205320552057205720552052205420532055205420512053205320532055205420552055205620552053205420522051205220532053205520572055205320542053205520552053205420542051205120542052205320552056205220542052205720552052205220542054205520532056205620532053205420522057205720522052205620552054205020532055205120522051205220542053205420552054205420552054205420522055205220522054205520532054205320522051205420542056205320532054205320542055205620522053205520562052205520542053205220522054205420522054205520572057205520552052205520572055205220562054205220552054205420562054205420532051205120512054205220522054205420542052205220542055205620542053205120542051205120512052205520552055205220542053205420532054205720542054205520572054205420532053205420552056205420522051205420522054205020532053205720552052205420562055205620532054205520552054205320552055205320532051205320522054205520522053205520552052205120512053205320542052205320552056205420542052205320532052205320532052205520522056205520562057205620552054205420552050205220542053205020522053205220532054205720552053205520542053205020542056205520542055205320532052205020522051205520512053205420522056205420542054205320522056205520542052205420532053205420542055205420552054205320542056205320522051205320532054205520542056205620522053205420542054205420552053205420522057205420522053205220532053205420522054205420552054205120552053205320552053205420542053205420552055205420532054205420542052205420542054205320542052205520542055205320532050205420542054205320542054205620552054205220552054205520512055205320522054205320522054205420542051205220542058205620532053205420562052205520552057205520532052205220512053205120542052205520552056205520552056205520542051205220552054205320542054205320542053205320542052205220552055205520562053205520552053205420532053205320552056205420522055205220542053205420542053205420542054205420532055205220522053205420552056205620532054205620532053205120532055205220542055205520552054205420512052205320522053205320562054205420522054205220522053205220562055205520552055205720552054205320522054205220532050205420542055205520542053205420542054205320532053205520552054205420512054205520562051205420542053205420522052205220542055205520522054205520532052205120522053205520542052205220552056205520522053205420562055205220522053205420552056205420562053205420512053205420542052205420532055205620572055205620542056205320542054205020542054205320552053205520542053205220552053205420562055205520532054205420532053205220532052205420532055205420542053205320532051205320532053205420582053205520512055205320522056205520532054205420542057205320542051205220542052205420522054205620522052205020532055205520532052205620542055205320542055205620542053205220532055205420522053205420542052205420542055205420552054205320542058205320532055205520542050205420502053205420542055205220552051205320522053205320552053205120542054205120542053205520522054205120542055205320562056205420562053205320552053205420522055205420522049205420532052205420552053205420522052205320552054205220522054205520522054205520522054205520512053205320542054205320522054205120552057205820512054205520552052205520572052205520552055205220542051205320542053205520542052205120542054205420512051205320522055205520572056205420522053205020552056205420542052205520562055205320542055205420522052205120542052205320512051205220532055205420532054205220532052205220562054205520542055205620562053205320552052205520532049205520542055205620562055205620542054205120522052205220522053205120552056205520512052205520532053205120552054205320532054205520522054205420532053205720542054205220542056205520552054205420532054205020512053205220532054205620542055205520562052205420532052205720562055205620572053205220522057205520542053205320552053205420532053205220542054205320512055205320522051205220552055205520532054205520552053205520522058205520532054205220522051205320532053205420542055205320542056205420532052205420532051205320562054205420542052205420542053205420522055205320542054205420542056205520562054205220542055205320522053205220522056205520542055205420532052205220552052205420532055205320542055205420552055205920552054205320542053205220532051205220542054205220552055205520552052205320522052205220532052205220542053205420512053205420542054205420512054205420542051205120532054205420522053205220552054205220532054205520572054205420572054205320542054205220542054205420542055205720562052205520532053205420542052205120542054205320542056205420512052205420532054205420522053205520562051205420532054205320532055205820552054205320542053205020512052205420552055205520552052205320512055205520562053205220542056205420512053205020522049205420542050205420532055205620552052205120532055205720562054205420552054205220552052205220542056205220542052205420562054205520582053205220552053205220522054205620552055205320542051205520532053205520552055205720532053205520532056205320532053205420552055205020542053205220552055205220532054205420532053205320532052205520552056205320532053205320542054205420532055205620552054205420552054205220532053205420542052205320562053205420542054205120522052205520552054205420542054205220552054205420522053205120532054205220542056205620562053205320542054205720552055205620532056205420552053205420522055205520552052205420552053205420552052205420522052205220522052205320552051205320542053205120512052205420522056205420562054205520532051205420562053205320512050205420562055205520552054205620522057205520562056205420532051205220542054205320522052205420552056205620542054205220502053205320532053205320542055205520542050205520562055205420532054205720542054205420532056205220552050205520522053205220532056205520522055205320562058205420522053205420532051205420542054205220542055205220562055205520552053205520552053205420532050205520572055205420562054205520542053205220532053205120532055205420522057205320542053205120522056205520562055205320532055205220552053205520552056205420522055205320532053205220532053205320552054205320562056205320502052205220552051205320542055205720532052205020522055205420552056205320552056205520522053205320562052205320522057205320522053205620562056205320552056205420552051205320522051205420542053205420532055205520542054205520552054205020552054205320542055205520542053205120512054205320522053205320542054205220532053205420532053205820542056205520552054205320542057205420532053205520532053205520552052205420522053205020512053205520542052205520552055205320512054205320522051205220552054205320552054205520542057205320532053205320532051205120552054205420542053205420582055205220542054205420542051205320562053205520532053205320552053205420542054205220512053205420532054205320542055205220512053205320532054205520562055205320522052205120532053205520532053205720552058205520532052205320532052205320542054205420542054205520542054205620552057205420562053205320532053205320562054205420562053205220522052205220532053205520542053205220542055205620552054205520552053205020542053205320542054205420572055205420542055205520532055205320562055205120532053205220542055205120542053205420552053205220512054205520542053205220562052205220542054205320552054205420542056205720532053205620552055205320542052205520532051205220532055205520562055205420522053205320542055205420522050205320542056205320532053205520542055205320542055205720532053205520532056205320542052205420552052205120542054205520542054205420562055205420512054205420532055205120512054205220532053205520552053205620532050205520532055205220522056205520542055205320542057205520512054205320522054205320542051205320552053205220512054205320562051205320552052205020522053205420532053205520552054205620542056205220532054205620542054205520552051205020552053205320532053205420552055205320532053205420552054205520522052205020522050205320522055205220522051205220522052205120532056205720542054205420532055205520542055205620542054205420552051205420552054205320562053205320532055205320562054205620552055205320542055205420552055205420542053205120552053205220532054205720542057205520542054205220552053205520532051205320532055205220542054205620532053205420562053205620562055205520552054205520532055205220542058205420532054205320552052205420552054205420542055205520552051205520502052205220542054205520552053205220552055205520532054205520532052205420542054205320532054205320542054205420532050205020522053205420532054205520532055205520542055205520552054205520562055205420542053205420522053205520532057205420572054205420512055205220492055205520542054205520542054205320532053205420512053205520542052205420552053205420552052205320552052205220542055205520572053205420552055205420522053205220552055205420542058205220552053205420522051205520532053205320542054205220532056205320542054205420562054205320542055205120552052205520542054205320542052205320562055205420562054205720562056205320522052205420512051205520532053205420522054205520532052205420542058205520542055205420552054205620542052205220552055205520542053205520562053205020532052205520552057205920542052205620532054205420552052205520522053205120532056205620542054205220502052205420542055205420522056205220532054205420522051205120532054205020522056205720532054205520552057205620562055205820592054205520562051205520572061205520532055205520542052205320542052205220522052205320522053205520512052205220562055205520582058205620542053205420502053205320502054205420542053205520552056205120532054205220532054205420542054204920552051205120532052205020512052205220522053204920512053205220532052205020542054205120512051205220532051205320512053205420532051205120532055205420532052205320542052205120542056205120512054205420552055205320542052205420572055205420512054205420532054205320532054205220532054205220522049205220522053205420562053205320522051205320552053205320532055205220552054205320542055205620542056205520562054205420542050205320572054205320562052205420552054205320522051205220522053205420532056205520532053205020552054205320542053205520572053205520542053205420532053205220552054205520552055205520572055205320502053205220542052204920552055205520532052205520542054205620532054205320542053205520522053205620512051205320552053205420562057205420552054205420542055205520532053205620552054205220522052205320532053205520582052205220532052205220562054205320552053205420562055205320532053205520512051205020542053205320542054205520562053205520532054205420532055205620542056205420542055205220532052205420532054205520542057205620552054205420512052205420502051205320552055205520532055205520542055205320542056205420532054205420582055205620532055205320552052205320522055205520522056205120532055205120502052205420522054205320542056205520532054205120572056205420542053205520542053205120552055205420532052205420542055205420532054205720562052205220522054205420542055205320532056205320572055205620542053205220532054205320522051205320542054205320502053205320542052205320542052205320522053205620562056205420542055205720522051205320562055205520542051205420552053205520522051205220532054205120552055205320552051205420512055205320522055205220532056205520552054205420562054205520522055205520542055205520542053205220512051205420542052205220512054205320512055205120562053205320552054205720552053205020512052205320522053205320552053205420552054205720542053205520562051205220542054205220542053205520562056205520562053205520532054205420532053205220532056205220532054205220532053205420542051205320522054205520542055205520522056205520542053205320542056205620562054205520572052205520502055205320542055205120512054205320552054205220522052205520552054205320542054205520552055205420522053205520542054205420532055205520522052205320542054205320522054205620542052205220532053205120542055205320552055205620532052205420542053205320532054205620542054205520552055205420542055205220512051205220512054205220542051205320542054205620542056205320532054205320552054205320522053205020522053205220532053205220532053205320532053205320532055205620532054205620552055205320532050205120532055205520552055205520532052205120532053205420522055205220552054205420562054205320552054205320502052205520532054205320532054205620552053205320552054205320542055205420552054205520552052205420562053205220542055205120532053205420532054205620522054205320522051205420542053205120552053205420572055205420512054205220542053205620552058205220552056205720522054205420552055205320562053205420552054205220512054205320542051205420542053205420522052205320512051205520512055205720532049205320522055205420532053205620532055205320492056205620532053205320562054205520522050205420512054205420542054205520522053205220562055205020522054205520552056205620562055205420532052205120542054205420572055205520532055205220552057205320532054205320562054205420532053205320522050205320542055205220542053205320552050205420532054205520552053205520542054205320542054205220552055205720542052205620562056205320532056205220522052204820492052205320542052205620582056205120512053205220532054205420522052205520572055205420542054205120492051205020512049205120532052205320542051205220522052205220532056205520522052205620572055205620542055205420562056205520542055205620572053205420522053205420542053205720562052205320532054205220552052205320542055205320512053205320542056205320562056205720542054205320522056205620552055205720542053205120542051205220562054205420562055205420552054205320562056205420522053205320552051205220532056205420552052205520542054205520542055205620552055205220522056205420572053205420542054205320552054205320532053205120552052205320522055205520552054205120522054205320542054205420572054205720552052205320542053205520552053205320542049205320562052205220512056205520512055205220532054205520542051205520552054205320532053205520532056205520542054205320522052205320532053205420532055205420522053205320552054205620512055205220562054205420542051205620522051205220562057205520552055205520532054205220542053205520502053205320542055205520562056205120552054205520552053205420522054205620552054205120522053205220532055205520532055205520552054205420552055205420542054205420562052205320552055205620542054205520542050205420532050205420552055205020512052205420562056205120522052205520532053205320542053205520562057205720562054204920542052205420512052205320552055205320542054205220522054205220542053205420512052205620572054205320532054205420532054205220542054205320552052205520552054205620542053205220522055205120522055205420512052205520582055205520542054205620552054205520532051205120542054205420532054205320522051205220562053205120522051205220522051205520542052205320542056205620542055205320552055205420532054205120542054205220512054205520542054205520572057205520522053205220532051205320532050205420532056205620542053205420542052205520552052205420552053205420552055205320532052205320522052205320532052205520542052205120532053205020532055205520522055205520532056205720532053205520572055205620552054205420552051205420542052205220522053205520522051205020522053205620552052205620542055205320512055205520522051205220542053205320572056205420532053205320522051205520532055205320572056205420562052205520562055205520532053205520552053205520542054205420502052205320522052205520532055205520512051205320542054205320532052205220532057205320542054205420522053205420532057205520552054205720542054205520542053205220522052205320512053205320552055205320552053205220542053205120542054205420562056205620572055205520552054205220542050205320532054205120542053205420552056205320552053205120522052205320542054205320542052205320532054205520532054205620522053205420542055205120552054205420532054205220542053205420552055205420562055205320542056205420582055205520542051204920512054205320542050205520552054205320542053205020572054205320552055205420542056205520542053205420522052205520532054205320542055205420562054205420542055205220522052205520502053205120522056205320542054205420562055205420532051205120552055205420532055205520542053205520522056205420542054205420552054205320512054205620552051205420542053205420512053205420522052205520522055205520562055205220522053205220542051205220522053205320532053205320522052205520552055205520562053205620562055205520532052205520562055205220522054205520522052205520532054205420542055205320542053205020552054205420562056205620552056205420552053205520532055205320562051205420542053205620542054205320512052205120532051205220572054205320522052205320532054205320512055205620562053205320552055205420542053205620532054205320522054205420522055205420532053205320512051205420552054205420532052205420542053205320542054205220562053205520542053205220552053205320562054205120532052205320512051205320532053205420542057205120532056205520552053205320562056205220532056205420552053205720522053205120562054205320542051205620542053205620542053205520552055205320562053205120502051205420542055205420532054205220532050205320532056205520532055205120542054205520552052205620542053205420522053205320512049205220532051205420532058205720552053205020552056205720552054205420512054205320552056205420532055205420552054205220532052205420542053205620532055205620532053205120542055205320552054205620532055205420522053205420522054205120552055205420542055205520552054205220532055205220542053205520552053205520532055205520542055205320532051205520522052205120552050205520542053205520552053205220532058205720522055205520532055205420532054205520532055205520542057205520532051205320552054205220522052205520552055205420532052205420542054205420542056205520532054205520592053205420532052205220502051205220562053205620532055205320532052205120512056205520532054205220542055205320532054205720542051205420552054205420522055205520542054205620552055205420552054205020542055205320542051205220492055205220542055205420562052205320522054205220552055205520542053205420522053205420552055205320522054205420542055205420522054205220542055205420532055205120542053205520562052205420562054205520512052205320542054205720562054205320522052205320542052205320542053205320542052205220522055205420552052205320532054205420532054205020532056205320552055205420542053205120542056205420552052205520552051205520532055205520562055205320552052205320532052205220532055205620552056205620532052205320512053205220532054205820532056205420552055205320552053205320532053205520532054205420522053205220542054205420562051205320522053205420542055205520542054205220542052205120542054205520542053205020542056205620532054205420522053205520512052205420542053205220572054205420542054205520532053205520522052205220542054205220522053205420552053205620552055205220512054205320542056205620552055205520542052205120552055205320522055205320552055205320552058205320532055205120522051205220522056205420552053205220532054205620542052205320552056205520542055205520552054205320532053205420552056205420552056205420552053205420532055205420542055205520532052205120542054205320522052205220552054205320532055205420532055205420552055205320522054205220552055205420542054205420552053205320542054205320522053205420552055205320552058205520542053205320532056205620542054205320542053205520502054205420542053205020552053205320552053205420522056205220532053205320522054205320542054205320522056205420562055205420532055205320552052205420562051205220522053205220552054205220542053205520532054205520562053205520572052205620552056205420542054205320532052205120542053205420532053205320532053205120522054205520532054205320522054205720562056205220532052205120502054205420522053205020542056205520532053205520522052205320502057205420522055205420562054205220532051205520532053205420542055205420562053205420532051205320502051205520562053205420522055205620562053205520552054205520572053205520532052205220502052205420542055205020532056205520552053205720542057205420542054205420532052205220562055205220542054205520542056205620542055205320552055205220542053205220542055205520552057205320552053205320532051205220552051205320552052205420542055205220532056205320542052205220522054205320542054205420542053205420542052205420542053205220542053205420522052205520542052205420522056205420542053205320542055205520522053205720572053205520542055205420532052205520562056205320542054205720532053205220532055205420532055205020542053205420542054205120532054205320532055205320522053205120542054205320522053205620562054205320572056205620562054205420572055205620542053205420542056205320542055205320532056205120572053205420542053205520512054205320542054205420542053205420542053205720572052205420552052205320522056205520542053205320492055205420522055205420542052205220532053205620542056205320542053205520542051205420552053205520552055205420542053205020542053205420532052205320532054205520532052205320552055205320562055205320532051205120542053205520532052205420542053205620562053205320532054205520552054205420552056205420542052205320502054205120532056205420552054205520542053205320522055205420562057205320552055205520542052205420532055205620562053205220522053205420552054205620542055205520542057205320542052205220532055205520542052205420532054205320542053205520522049205420532055205320492054205420532056205420552059205420532053205420522055205220532050205420522054205220542053205320542054205520522053205520522052205520532052205320542053205620552053205420552054205420522053205420542055205120522053205120542053205520542054205520572055205420532054205520552054205520552054205420532052205220532054205320552054205120512052205320522054205520542054205320542051205520562053205420502054205520552053205420562054205520532054205620552054205620552055205320532049205120552052205320552056205220542055205220522051205520562056205320552054205120532054205420552053205220522053205620542054205520542055205520562055205620542051205320522055205120542052205420562053205220532054205320532054205420542051205320552054205220552052205520552055205620562054205220552053205320532052205320522056205320552054205420532053205320532055205220522051205220512051205320532055205320542053205420562050205620552055205520532053205320522051205320562056205320562053205420552052205520562054205620532054205120522053205420562054205420532051205420532052205220532053205520542052205320542053205420522056205620572055205320552055205520552054205120522054205320522054205420552055205520512053205220532054205120532052205420532050205320522054205420552053205320542054205320532055205520572055205620532052205520532050205320532055205220542054205620562053205520542054205120522052205320542053205220552053205520542052205320552054205320502055205420562052205220552052205420542052205520552054205520542054205520552053205520542054205420532054205420502054205220522054205320542051205420552058205320512051205220532051205320532051205820542055205320572052205820582055205420532055205220522051205620532055205520542054205420502052205320562054205320532054205520562053205320532055205320522053205520532055205420552057205220522053205120542052205520522054205420552050205420542054205220532055205320552052205520522053205520562053205320532054205220532051205220542055205320542053205620562055204920532057205620552057205620542054205220502051205220522052205120552055205420552054205320552055205420492052205720572054205020512051205620522055205320542054205520562055205420542055205220512049205520492055205320542055205520522054205620542056205420542053205220562054205220532053205120542053205420532052205320522054205320532055205020542054205520542053205220572056205220542054205420522052204920512053205420562055205320562054205220512053205220552056205520532054205420532052205420542054205220522055205320542056205420532053205320552052205220542050205320522053205420542053205020562056205520552053205620532056205520532055205520542053205420552053205420532050205420552056205520542052205320532052205320542054205220532052205620542054205320542054205620532055205220562054205420532054205620522054205220532054205420522054205320552053205420552055205420562056205620552051205320522051205220562052205320542054205720532051205620542055205520552052205520512055205320532055205420562053205420542054205520552055205420512052205320522054205220542055205320532055205620522055205420512055205420552054205520542052205220532054205520542055205420542054205520552055205520542053205320542054205520532054205420552054205320522053205220572055205520522055205320532051205320552056205620542054205720572052205420522055205620532053205420542054205720552056205620562056205120542051205120522053205320532054205320522052205320542052205220542055205420532053205120552054205320522051205520542059205420542056205620572054205420542054205420502051205320552055205420542056205620532053205320522055205420522054205220542051204920532052205220532054205320512053205420542055205320522053205420532055205420532053205420552056205520542055205520532053205420532054205320542054205620552056205320552052205320542052205020522054205120522052205020542053205220532054205420542055205220532053205420532055205520572056205620542059205420542049205120582059206020562057205520502050205220522052205320502051205320542056205820532050205420552057205620522054205020522056205320562055205720592057205420572056205420562057205420552055205620562056205520502053205320562055205520562053205220522050205020542053205620572056205220512051205120502052205320532053205420542051205020492050204820502051205120562055205620542052205320512052205320542054205420522052205320522052204820492050205520552057205620532050205120512052205120512054205620562055205320532049205120512051205320532055205520552054205520542056204920522056205520532054205220562054205220512053205420552052205320522054205320572052205220522054205520532056205520552055205420562056205320522054205420572055205420522053205120532049205420532052205620542054205520582057205420552052205220522054205020512051205320532058205820562057205720532053205520542048205220642056205620552053205120512051205220542055205220532055205120532059205620572056205320512051205320552055205520582056205420532054205420542053205720512051205420542054205320522053205120552054205020532052205520552055205420522053205320542051205320542055205420522053205520522051205420532056205420542053205420562054205220552054205520532057205320552053205620552055205520532056205420522055205520542055205420542053205520562053205320552054205420522052205220532054205320542055205520522055205620532054205420522054205420542055205420512053205320532055205520532052205420532052205320532054205520532053205420552052205320532055205620532052205220522054205720542053205420552054205420532054205220522052205620572056205420552055205420532053205220562056205320542053205420552051205220492056205320562052205420552055205320522051205220552054205420542054205320532053205520572054205520572053205320522053205120522053205320542053205220552052205320502052205120522052205420522053205520542053205120552055205420532054205420532052205120552055205520562056205420542055205220532051205520532054205120542053205620542056205420562054205520532057205520522055205520532056205320552054205520552054205520532054205320542053205320522055205420552054205220512052205420532051205420552054205520552054205720532051205120552054205420542054205520562056205420552053205420552054205520572055205320532053205320522055205420532053205320552052205220542056205620552054205220552055205420552054205220532055205220552054205320472050205420542053205320532053205420512055205520552056205420552056205420532055205420582056205620532052205120582055205820542056205720562054205520532054205320522052205220532053205420522054205520542055205320522055205420542054205220532054205320522055205420552051205320552056205220542054205520532056205520532055205820532054205320542054205220542051205420532052205220552053205120542053205520542054205420532057205320542055205120502054205420512052205220552056205220522053205320532053205320542055205520562053205520572052205420532053205420532054205520542051205620522053205320542053205620532051205420542055205720542054205420542055205420512054205220552053205220522050205320512055205320542054205420532055205520532053205120522054205520522053205820572057205420552055205120522053205220542056205220542054205320522054205320552055205320512050205020542051205420552054205420552054205320512052205320522053205420572056205320532053205420542053205420552053205520532054205420552051205420532057205420522052205420542056205520542055205420552051205320552052205620542054205120522054205320542055205220542057205920612057205320522051205020522053205420572057205620542052205520542057205520552055205720602056205420522051205220542053205320492055205520522053205920582056205520592056205720592055205320542054205720522053205320552056205520552055205720552056205420522052205420532053205120542053205420522048204920532054205120562053205320542050204920502047204920492053205420542055205320542052205320502046204620472051205420532055205520532050205220502050204920492049205320562057205320542056205420542051205420522057205320552056205120532053205320512052205520542053205220522053205520532052205020462042205220562060206020602055205720552053205720572056205520572055205320532050205420542050205220532052205220522053205220552056205520542054205220522051205320552053205720512053205820532055205620552053205220532051204720572053205520612057205620562055205520552055205720572055205420522050205120552053205520562052205220542052205120532049205120572056205620572054205620532053205220492052205120522054205320502054205520572056205620562056205420542055205320542053205420562057205520542054205520562054205520512054205320512052205120532054205420522054205320562052204820532053205620552054205120492051205420522054205420552054205420522052205520542054205520542051205620562053205420552053205320542050205520552054205420532052205620552053205520552056205520532050205320542056205520562053205420512053205220522055205420562055205620532054205720542056205720572053205020532054205320542053205420552053205320542056205520542051205320522054205420572055205720542058205420542055205520532051205120522052205220522051205020532054205520562057205420522053205420542054205420552054205520552056205420542055205520562056205320542054205320522051205020552053205320532055205420532054205320552053205220522052205420542055205320512054205620572054205320562054205520532053205520532052205620532053205320552053205320532051205320532055205320562055205320522054205320502054205620552054205420522052205220512052205420522055205420552053205220562056205420532052205420512049205120532056205720552057205420562055205620542054205320542054205520542053205320572056205520532055205220532052205220542055205320532053205220552055205320522053205620542053205720522054205320522052205120522053205120532052205220532053205420562053205620542053205220542052205120552055205420552055205520552053205320522054205220542054205420532056205120532053205420552056205420552053205420542054205320532053205520522054205420542050205220522055205320542054205620542055205220512053205420542053205320522056205520562051205220552055205420512053205320562052205520542053205620512052205320552056205520542053205520532052205620542054205420512051205420562054205420572057205720522054205220552055205620542052205420552054205420512055205220522055205420542053205520542053205420562052205220532054205320552052205420542053205420572054205120532054205520512053205320572054205320532054205520542054205420552054205320532052205320562056205320542052205320522052205320552054205120512054205220522051205420512053205420502053205220542053205620542053205420552056205220562054205320532055205320542056205520532052205220532054205220552054205620532053205320542055205320542055205520532053205420532054205320532053205520532054205420532053205520552056205520542054205520552053205320512056205720532055205320542054205420532052205420512055205520522054205720532055205220522053205520522053205320522053205220522052205120552051205620552054205220542052205220532051205120512055205620532053205420542055205620522055205520562056205420552057205520562056205220542053205120522055205320532054205320542054205520532053205420562054205220542053205320542054205420552054205120532054205320542053205320552055205120502052205320542054205420552053205220542053205320542053205420552053205720552053205220532052205520542054205520552054205320522052205120542052205120542053205720532053205320552054205520552053205320542053205220512053205520562050205620532052205220512056205320532054205320572057205420552051205420542051205420542052204920532054205320542054205520552052205620532055205320522053205620542053205320562052205420532055205520532054205520512051205320522055205220562055205520542053205320542053205520552055205420542054205520562053205420542055205620532055205220552052205420542057205320522053205120532054205220542055205420532053205120542054205420562056205320542054205520512052205220512052205720552055205520522055205320562054205420572055205220512052205520542055205520532055205320552053205320562054205420572054205220522053205120492054205320522051205420532056205720542055205620572054205420542054205320522053205620532053205320502053205520522053205220532057205620552054205520542054205320542051205320542054205520532053205520532051205220562055205520542053205320552054205320532054205220552054205520542055205320522053205220542056205320572055205420542053205320562053205420542053205420542052205320522054205120542054205320552054205520522052205320512054205320532053205420552056205320532051205520532057205920552053205420552054205420522054205320542055205420512052205520562056205520512052205320542050205220532055205520512053205320552051205520542057205420532054205320542055205420542054205420582055205320552051205420532051205320512051205220532054205420532054205520562056205520572053205020552055205320552054205420522051205020542050205420542053205120532055205420552052205620542054205220542053205420532055205420562054205420532053205420552052205320552054205520542053205420532054205520542056205520562054205120542055205520582054205420552054205320542053205520532054205420532054205420552054205420552053205320532053205620542054205320552056205320552052205520532052205220532054205620552056205620522055205720532052205320552055205420532053205620552056205520542054205120522053205320562052205620532053205320562054205520532055205420542054205120532055205420542053205320552054205320532054205620532054205320512054205320522056205320542055205720562054205320522054205520532051205220532053205520542050205220562055205320532054205420532053205220552054205620592055205320532054205520542053205320542053205020532055205320552057205520542056205320522055205220552048205120502049205220522053205420532050205120542055205420542056205620552054205420542053205320532055205220512052205520552056205520552054205220552055205320542053205520552055205520542054205520532050205120522051205120542053205220532055205520572056205220522053205420542053205520522055205420552052205520512053205420532053205420572053205320522052205120522051205420552056205420542058205520562052205120522053205320532056205420532056205320502053205420552055205420562053205420522053205420512052205620522054205520532051205220532053205520552052205420532051205520552055205420562055205420572054205620552053205320552056205320532054205320532053205420552055205320552052205620532052205220522052205420522053205220532055205420532054205420552054205520512053205520532051205520512053205520562054205420552054205520532053205420522051205320532054205620552055205520552055205220512053205420542051205020542055205320562054205320542052205520552054205120552052205620552055205520532054205520552053205820552054205320542053205420542055205520542054205420552053205520552054205220522054205320522053205420542052205320542054205520542052205320542054205120512052205620522055205520532054205220522055205620532053205220562054205320542052205220542049205420532055205620532054205320562053205320522054205420542057205520522053205320542054205120552054205220532053205620542054205320532055205520512054205520552052205420522055205520542056205420512051205520542055205220542057205320522051205320542055205520542057205420542053205420562053205620522053205420532055205420522053205220522054205120532054205120532053205620542052205520542054205320542054205220542052205420532054205420552052205220522054205420532054205220552056205420522052205420532053205320572056205420532053205520562055205320532051205120532051205320512053205620552054205520552055205520542054205420542053205520542053205420562051205420572052205620522056205520542054205220552054205420522052205220552054205420532050205320542054205220532052205320562056205320572053205220512052205220522052205320532053205520542052205520552054205520552051205520522052205420532056205520562054205520512053205420512052205320552054205320542054205320522053205420542055205520542056205320542054205520522052205420552054205220532053205220522053205520542053205720542054205620532052205320552054205420522054205420552055205320542054205720552052205320542053205320532055205720542055205320552053205320542053205320572053205420532052205320522055205220552056205420562054205220532052205420542055205420512053205520522054205320542056205520532055205420562055205520542054205320552053205520542053205220532057205620532056205320522052205120542054205420532054205120532051205220542051205220542054205420522053205420552055205420552056205620552053205520542055205720552054205420552052205420532055205520522052205420542053205420532055205320552053205520542052205420532052205420552053205520562053205520532054205320562054205620522054205320532056205620532053205320532052205520572055205420522053205520532054205220522055205420522050205220532053205220512053205320522053205420532054205520552053205420522056205320502055205620552053205320532055205320542054205320562055205620552053205520522052205420532053205320532053205320552053205520552053205420522053205420542054205520542055205520552055205720532055205520562057205420532056205520522051205020522052205420522053205520532053205520522053205220532053205620532052205320552056205520542054205520532051205320532053205320522054205020532054205520522053205320532052205520562055205420552054205420522052205220542052205320552053205320522053205520542051205320502049205220542053205220552055205620542054205420532057205520532056205420562055205420512053205520532052205220532055205420522054205520562056205320532054205320542052205320542052205220542057205220572054205520542052205320562052205220552057205420542052205220502052205220542053205520542054205520542051205120532053205220542054205320572054205520542052205520532053205620552055205520542054205620542055205520542052205320552055205320542053205520512051205120542055205220522052205420552054205420532052205220532054205320552056205520532054205320562052204920512053205520562056205720542054205420522052205320562053205420552054205220552052205520552055205320512052205320532053205420542053205420542055205120522052205220522054205320532052205320542055205320542052205320552056205420522055205420542054205620542055205320552055205720542054205320542052205120562054205420562053205420512052205420572062205520502051205320522051205220532053205220532053205420562055205420562054205420532054205520532053205520542053204920512055205520532054205520532055205320542057205520552055205120552052205320522053205320552052205120552052205620542053205720562054205320522054205120562054205220552053205520532054205520572055205520512054205420522053205320522056205320552052205720552054205320542056205120522054205520552055205120532052205420532053205620542053205420562054205420512056205320542053205320562055205420552052205220552054205220542054205320502050205820592052205020512053205520542055205720552061205820552053205320562057205520542053205420562054205420562054205520532052205520552052205020492053205320532055205320512052205620542051204920542052205620502050205420522052205520532053205320542054205220552054205420532056205520532057205420522054205520522050205420552053205420532053205620552055205420542056205320542052205220502052205320552054205620532053205220532057205420542053205420542054205420542053205420562055205120522051205420562055205220542054205620542053205220532058205320542056205820532054205320522052205020512053205320522054205420542052205520552051205020552053205320562055205620572056205320532051205320542056205320552056205620552051205420512052205420532054205720542052205220532057205620532053205220542055205420482052205120562053205520532054205520542054205520532053205320522052205320532053205320552056205520522052205420532055205320522056205120532051205320552055205720552052205620542055205620512055205620542053205220572053205520522054205620522054205220562060205420552056205020542055205520532054205520542054205320522055205520542050205420522055205420532051205720522054205320542051205520542055205520572056205320522055205520532053205320532053205420542054205420562057205420552053205320532056205320522055205420542050205320522055205720522057205920502053205420542056205320552057205220542052205220522053205320532052205320512053205220532056205320532053205420552055205820542054205420532054205520552054205220522054205520532054205320532052205320542056205320532056205520562056205620522051205520532055205420542055205720522051205320602057205420522053205320532054205120522056205320582053205320542054205520502052205420522052205320542052205520532053205220572055205420542054205320532050205220542052205420552055205520552054205320542053205520562054205420562052205120522052205520522052205120532054205320572054205320522051205320522055205520562055205420512054205120542053205220552050205120552055205620552056205620522054205420552054205420542055205420552055205320542052205420532054205320532053205120542054205320532052205120562053205620552054205220552053205420542054205420532054205220522054205320522053205120542055205520522053205420542053205520542054205420552055205220542051205320542055205720542051205120522053205820572052205220532053205420532054205320522054205520522053205520532052205420562055205720562056205520552053205620542057205320552052205720572051205320522053205120502049205220532056205420532053205320552055205120512051205420542054205320532054205420552053205320532056205420532056205520562054205620562053205520532052205620552054205120522052205820532054205320582052205320522053205320542053205320512054205220532051205320542055205420552055205520532052205120542054205420522055205320542054205720542054205520532054205420542056205520502054205520512055205420522054205320532052205420552053205520542052205620552056205320522056205720522050205220542053205520542055205520542054205420552055205320532052205220542055205320522054205420542055205220552054205520552055205320542055205520532053205620532052205420522054205420512052205420552058205120522053205320542052205320552054205520532053205520542056205520512052205320552053205420552052205620532057205620542055205320522052205420562052205020522059205620532054205220552053205420522052205520552056205320532053205420532052205220532055205420542056205420562054205320522054205420542053205620532054205420522053205420572053205420502054205520522053205220532056205420532052205220542055205220532058205520512052205420552054205520482051205220552051205020522052205520532052205120592054205220512050205420532056205520552057205420572056205520542057205520532054205520502054205220522050205420522051205520532055205520552053205620522055205520542054205120522055205320542053205420502048205420592061205320532051205220532054205220562053205520542054205320542055205420532055205520562055205320562056205320532053205220532052205620532052205620562055205520542055205120502052205220512055205320542055205420542055205420562056205520542051205320522052205020522052205520542056205220572054205320552053205420562053205020512055205520552054205420532055205320522053205320542057205720502051205420522053205120542056205520522052205320522054205420542056205420542054205220542055205520532053205320552055205520552053205520552055205520542053205420542054205220512055205520542055205420542053205420512054205520532052205420542053205420522052205120522052205220542054205320532055205320552054205520552055205120542052205420562056205420552056205820572051205320532053205420562053205420522054205320542053205520542052205320552050205220522053205320562054205520532054205720552054205420512056205520542053205420522057205620542052205720542051205720542055205420532049205020532055205420542055205720552055205320552052205520542053205520562054205620542051205220542054205020532053205620542051205320562053205620532052205220522053205220542056205420532055205620552055205320512051205320552055205720512052205120522056205620572055205420522053205420562053205420552053205520552053205420552054205620552052205320542053205320542057205620552054205320522052205320532054205520552053205420562054205320532055205420542052205320562058205420532056205420522051205320542052205220542051205420532053205220522052205420552054205720532055205220532054205520552053205320552054205520532053205320532053205320542054205420532053205420552056205420542056205320522052205220532052205620542054205420542054205320552054205320542053205320562055205620512051205420512052205220542058205320552055205520502052205220522053205920572052205020522055205220552057205520532055205320552053205520542053205420512055205520522055205220552054205520542052205420542054205320522054205020542052205320532054205520552054205520562054205420542054205420532054205420542055205120572060205320512052205320552056205520532053205320532052205320502053205520512055205420552053205520552052205620542054205420512055205520542055